date,nav,n_positions,invested_frac
2022-01-21,1500000.0,0,0.0
2022-01-28,1500000.0,0,0.0
2022-02-04,1500000.0,0,0.0
2022-02-11,1500000.0,0,0.0
2022-02-18,1500000.0,0,0.0
2022-02-25,1500000.0,0,0.0
2022-03-04,1500000.0,0,0.0
2022-03-11,1500000.0,1,0.039926880000000047
2022-03-18,1502908.0799999998,1,0.04178459137700551
2022-03-25,1502343.5999999999,1,0.04142455827015866
2022-04-01,1506002.64,3,0.12171277468676948
2022-04-08,1510609.8000000003,7,0.28430873412842944
2022-04-15,1520752.2300000002,7,0.2890819301971367
2022-04-22,1543662.9400000004,11,0.4595790969756649
2022-04-29,1547718.4600000002,11,0.4609951735020334
2022-05-06,1529541.79,10,0.4246555891748468
2022-05-13,1471963.1300000001,8,0.3376844975729792
2022-05-20,1546138.2800000003,8,0.369458726550642
2022-05-27,1513157.4300000002,7,0.3263895548528615
2022-06-03,1517354.7100000002,8,0.3670214593395897
2022-06-10,1551422.7500000002,8,0.3809211770292784
2022-06-17,1481853.35,5,0.2425886880101866
2022-06-24,1465416.2000000002,5,0.23409302422069575
2022-07-01,1464533.8000000003,5,0.23363155565272717
2022-07-08,1453196.3000000003,5,0.2276525270536403
2022-07-15,1460561.2200000002,6,0.27154392747741174
2022-07-22,1483161.4100000001,6,0.28264403130607335
2022-07-29,1486505.6600000001,6,0.28425789512298255
2022-08-05,1497978.6600000001,6,0.2897397550376318
2022-08-12,1519335.6800000002,7,0.3396141529434759
2022-08-19,1547769.5100000002,7,0.3511704077954087
2022-08-26,1559246.0800000003,7,0.35594600949710253
2022-09-02,1574179.3200000003,8,0.40204327547639235
2022-09-09,1570390.1800000002,8,0.4006004864345241
2022-09-16,1561904.1400000001,11,0.5110583611104327
2022-09-23,1561683.3800000001,10,0.4801273546242132
2022-09-30,1550012.6300000001,10,0.47621299705151426
2022-10-07,1600261.53,11,0.5326026490182513
2022-10-14,1552422.6900000002,11,0.5285020602217556
2022-10-21,1552062.0200000005,11,0.5283924929752485
2022-10-28,1578526.37,11,0.5362990990134677
2022-11-04,1602969.2400000002,15,0.7040088804199385
2022-11-11,1624434.2500000007,15,0.7079200589374423
2022-11-18,1625285.7900000003,16,0.7275250957556207
2022-11-25,1704728.7900000005,16,0.7402228479991823
2022-12-02,1759930.9400000004,17,0.788356360164905
2022-12-09,1756512.7700000003,17,0.7998291467018481
2022-12-16,1838331.8900000001,18,0.8478507871611799
2022-12-23,1603192.2000000004,16,0.7384155998263963
2022-12-30,1782662.35,17,0.8046335190733118
2023-01-06,1784777.6400000006,17,0.8048650643113167
2023-01-13,1799054.6700000004,16,0.7724718004261648
2023-01-20,1800514.4400000002,17,0.8126542267553265
2023-01-27,1684823.5700000003,16,0.7485125104226787
2023-02-03,1695433.4500000002,16,0.7500862979906405
2023-02-10,1712906.5600000003,16,0.7526356312162176
2023-02-17,1663113.3900000001,16,0.7452296081868476
2023-02-24,1626062.3200000003,16,0.7462394368747195
2023-03-03,1665954.09,16,0.7523158096151376
2023-03-10,1671407.1600000006,14,0.6717025311773823
2023-03-17,1617410.0500000003,9,0.4471376321669324
2023-03-24,1595563.0800000003,4,0.21908972724538092
2023-03-31,1596489.9900000002,3,0.16379602229764054
2023-04-07,1607594.9600000002,3,0.1695723654172192
2023-04-14,1617239.2400000002,4,0.21441574717170478
2023-04-21,1620452.3400000003,5,0.2556268084996563
2023-04-28,1634259.1600000004,6,0.30182347578213964
2023-05-05,1644832.2800000003,9,0.42581219283950317
2023-05-12,1645577.0900000005,11,0.5055990843917253
2023-05-19,1661598.7800000007,14,0.6294080451840485
2023-05-26,1660822.2900000005,17,0.7468970506170167
2023-06-02,1705123.05,21,0.9021586975790395
2023-06-09,1749836.8100000003,23,0.9842983529418378
2023-06-16,1815566.4000000004,23,0.9848668052019466
2023-06-23,1791346.6400000006,23,0.9846621980433666
2023-06-30,1892888.210000001,23,0.9854849748364165
2023-07-07,1949197.3700000006,23,0.985904290441352
2023-07-14,2043882.230000001,23,0.9865572880879734
2023-07-21,2078794.4400000004,23,0.9867830510456818
2023-07-28,2133533.5700000003,23,0.9871221524768413
2023-08-04,2143383.6100000003,23,0.9871813333498429
2023-08-11,2292120.1800000006,23,0.9880131416145901
2023-08-18,2359847.65,23,0.9883571636499499
2023-08-25,2434023.0100000002,23,0.9887119719546118
2023-09-01,2549035.7799999993,23,0.9892212890005019
2023-09-08,2650638.99,23,0.9896344541434515
2023-09-15,2682969.2700000005,23,0.9897593609038987
2023-09-22,2690167.8400000003,22,0.9654569359508808
2023-09-29,2741286.0,22,0.9661010781071364
2023-10-06,2830940.0600000005,22,0.967174635269388
2023-10-13,2889202.7800000003,22,0.9678365808577823
2023-10-20,2957014.4,21,0.9270306022182373
2023-10-27,2872974.0800000005,21,0.9248960993062629
2023-11-03,2886155.29,20,0.8992320194940029
2023-11-10,2951818.8400000003,19,0.872346525845739
2023-11-17,3040864.24,20,0.9160521779821382
2023-11-24,3065022.95,21,0.9566521810220049
2023-12-01,3100440.66,20,0.937381033443162
2023-12-08,3085426.4600000004,21,0.9768102072995121
2023-12-15,3218421.84,21,0.9777684829531232
2023-12-22,3211847.0800000005,21,0.9777229742830719
2023-12-29,3287149.970000001,21,0.9647162645274744
2024-01-05,3439316.5100000007,21,0.9662773316550617
2024-01-12,3605479.23,21,0.9678314801996514
2024-01-19,3676652.28,21,0.9620463374360764
2024-01-26,3696424.239999999,21,0.9622493493874501
2024-02-02,3856102.17,22,0.9985173707158282
2024-02-09,3873019.3200000003,21,0.9872247216158994
2024-02-16,3793150.6399999997,19,0.9492161481886202
2024-02-23,4011738.250000001,19,0.9607654362793983
2024-03-01,4086117.37,19,0.9614796184868277
2024-03-08,4060986.37,19,0.9801227454008912
2024-03-15,3705320.7200000007,16,0.8569788366390049
2024-03-22,3589626.2800000003,15,0.8118540351225643
2024-03-29,3645311.5100000002,14,0.7814143516091441
2024-04-05,3822485.16,14,0.7915458800630111
2024-04-12,3802436.45,14,0.7971831034809272
2024-04-19,3740485.810000001,15,0.8338191583729065
2024-04-26,3970389.3400000003,16,0.8920990554543449
2024-05-03,3952979.2700000005,16,0.9006946069818372
2024-05-10,3725020.5200000005,14,0.6744558497089835
2024-05-17,3926263.680000001,16,0.7710600628840087
2024-05-24,4048778.360000001,18,0.8578524733075287
2024-05-31,3964585.5200000005,19,0.8948301334662594
2024-06-07,4025217.070000001,21,0.9763053523968086
2024-06-14,4318303.750000001,21,0.9779135268101508
2024-06-21,4374667.73,21,0.9889923731419026
2024-06-28,4355537.33,21,0.9915289280737263
2024-07-05,4679210.41,21,0.9921148940169159
2024-07-12,4676054.510000001,20,0.9600402284446422
2024-07-19,4506096.350000001,18,0.8863423326489678
2024-07-26,4537583.490000002,20,0.9670513390377307
2024-08-02,4661159.28,20,0.9679248678238688
2024-08-09,4537974.61,20,0.9670541788245041
2024-08-16,4561625.98,19,0.9281257644889157
2024-08-23,4623182.92,20,0.9690685351467772
2024-08-30,4582849.65,20,0.9687963099553134
2024-09-06,4581951.07,20,0.9782628102137284
2024-09-13,4720205.7,20,0.9788994916047832
2024-09-20,4609986.66,20,0.978395004726543
2024-09-27,4677249.21,20,0.9790402423308121
2024-10-04,4563704.590000001,15,0.7828004266156937
2024-10-11,4581906.45,14,0.7352426324636112
2024-10-18,4635445.7,11,0.6377065316502359
2024-10-25,4412203.83,9,0.5292019430571048
2024-11-01,4568714.75,9,0.5453301193732876
2024-11-08,4544787.800000001,10,0.5829137523208454
2024-11-15,4496597.0,7,0.4733719833020392
2024-11-22,4609010.52,8,0.5260953472503681
2024-11-29,4713986.67,8,0.5366487682494867
2024-12-06,4776331.050000001,9,0.5825314641873495
2024-12-13,4841387.98,10,0.6279315069477245
2024-12-20,4895688.93,11,0.671988875731122
2024-12-27,4805490.470000001,11,0.6658321476184303
2025-01-03,4759172.21,12,0.7025672601160192
2025-01-10,4651138.86,11,0.6413833256313487
2025-01-17,4635911.5200000005,8,0.5117121023051795
2025-01-24,4358722.8100000005,5,0.26277990593304096
2025-01-31,4343349.680000001,3,0.15931476187291466
2025-02-07,4349694.16,3,0.16054098847262394
2025-02-14,4326219.78,2,0.12261554589813276
2025-02-21,4336056.58,2,0.12460598473094639
2025-02-28,4278491.38,1,0.05815686369338897
2025-03-07,4306191.3,1,0.06421534500801197
2025-03-14,4282896.220000001,1,0.059125523242307375
2025-03-21,4270538.98,0,0.0
2025-03-28,4270538.98,0,0.0
2025-04-04,4270538.98,0,0.0
2025-04-11,4270538.98,0,0.0
2025-04-18,4270538.98,0,0.0
2025-04-25,4270538.98,1,0.03998699011992158
2025-05-02,4261372.390000001,1,0.037921916981303795
2025-05-09,4258504.8100000005,1,0.03727407554577825
2025-05-16,4273551.550000001,5,0.20024317478983028
2025-05-23,4284276.32,5,0.2022451950531519
2025-05-30,4323232.010000001,6,0.2492845555147525
2025-06-06,4411426.36,6,0.2642930482919814
2025-06-13,4407555.7700000005,6,0.2636469713915837
2025-06-20,4422778.510000001,6,0.266181421325573
2025-06-27,4440651.67,6,0.26913496459856295
2025-07-04,4460037.5600000005,7,0.31227132759841597
2025-07-11,4465119.380000001,8,0.3528094807624158
2025-07-18,4425927.590000001,9,0.3869722504881739
2025-07-25,4357497.090000001,10,0.417295943621617
2025-08-01,4367094.14,9,0.38141767193505005
2025-08-08,4321070.98,9,0.38371213703136164
2025-08-15,4378537.48,9,0.3918006612564157
2025-08-22,4384713.07,9,0.3966754134723803
2025-08-29,4364438.01,8,0.35735920327574994
2025-09-05,4359325.68,9,0.39658298941316983
2025-09-12,4377732.630000001,9,0.3991201628044607
2025-09-19,4378828.51,9,0.39927054370987447
2025-09-26,4373609.45,10,0.4385265035496024
2025-10-03,4438956.57,10,0.4467921117777459
2025-10-10,4382249.930000001,11,0.479492537752177
2025-10-17,4343330.350000001,8,0.3614782766869207
2025-10-24,4315013.82,8,0.3572880885929584
2025-10-31,4335306.73,9,0.4002254507145334
2025-11-07,4305037.25,10,0.4293865308598665
2025-11-14,4335628.4,10,0.43341264209820196
2025-11-21,4227824.16,9,0.37188604835448025
2025-11-28,4283457.84,7,0.31289489941612214
2025-12-05,4271089.53,7,0.31090516615791947
2025-12-12,4268524.59,7,0.3104910917240376
2025-12-19,4279977.66,7,0.31233619336228036
2025-12-26,4278085.72,7,0.3120320810215088
2026-01-02,4353589.64,8,0.36387627704847253
2026-01-09,4345034.83,8,0.3626238319475106
2026-01-16,4353583.05,7,0.324798903284962
2026-01-23,4277200.4,6,0.26672299478883443
2026-01-30,4297737.289999999,7,0.31020446808185426
2026-02-06,4341397.379999999,7,0.317141528288295
2026-02-13,4355144.59,8,0.35923087687887767
2026-02-20,4404300.54,8,0.3663824358362248
2026-02-27,4426572.13,10,0.4495197031839624
2026-03-06,4333565.67,10,0.43770536192197596
2026-03-13,4289182.72,8,0.32995160905618864
2026-03-20,4317774.86,8,0.3343886438766287
2026-03-27,4308894.48,8,0.33301685772541834
2026-04-03,4315135.34,8,0.3339814968584508
2026-04-10,4407444.96,9,0.387609264665667
2026-04-17,4455449.859999999,14,0.593565779685376
2026-04-24,4370328.69,18,0.7450441124601088
2026-05-01,4458011.210000001,20,0.829986302344897
2026-05-08,4523703.9,23,0.9605285372457734
2026-05-15,4389093.45,22,0.9179671806714436
2026-05-22,4350235.23,23,0.9676464116171481
2026-05-29,4530472.300000001,23,0.9790233746711131
2026-06-05,4614224.830000001,23,0.9890536369897692
2026-06-12,4552801.5200000005,23,0.9889059560848151
2026-06-19,4746853.230000001,23,0.9893594814179666
2026-06-26,4729017.25,21,0.9215224008751501
2026-07-03,4816333.34,21,0.9229451340259601
2026-07-10,4952893.249999999,20,0.8973727285561828
2026-07-17,4866339.399999999,20,0.895547375918745
2026-07-24,4811806.32,21,0.9342459153675995
2026-07-31,4724433.1,20,0.9007618670692998
2026-08-07,4814955.03,19,0.8725358978067133
